time temp control
0.0367889404296875 26.39 30000
0.13682889938354492 26.37 30000
0.2342374324798584 26.35 30000
0.33374571800231934 26.34 30000
0.4324362277984619 26.32 30000
0.5304105281829834 26.31 30000
0.6265687942504883 26.29 30000
0.7245416641235352 26.29 30000
0.8224091529846191 26.28 30000
0.9221608638763428 26.28 30000
1.0189862251281738 26.28 30000
1.1185312271118164 26.28 30000
1.2173864841461182 26.29 30000
1.3172619342803955 26.31 30000
1.4147520065307617 26.34 30000
1.5143227577209473 26.37 30000
1.6129379272460938 26.42 30000
1.7111883163452148 26.46 30000
1.8082528114318848 26.51 30000
1.9076614379882812 26.57 30000
2.007200241088867 26.65 30000
2.1047732830047607 26.73 30000
2.203803777694702 26.82 30000
2.3019397258758545 26.92 30000
2.399711847305298 27.02 30000
2.499403238296509 27.13 30000
2.5989277362823486 27.24 30000
2.6977100372314453 27.36 30000
2.7959134578704834 27.49 30000
2.8924310207366943 27.61 30000
2.991483688354492 27.75 30000
3.08981990814209 27.88 30000
3.188516139984131 28.02 30000
3.2877893447875977 28.16 30000
3.386514663696289 28.31 30000
3.4853875637054443 28.46 30000
3.584663152694702 28.61 30000
3.6834914684295654 28.77 30000
3.782379388809204 28.93 30000
3.88183331489563 29.09 30000
3.978569984436035 29.25 30000
4.078646421432495 29.41 30000
4.174911260604858 29.58 30000
4.270632028579712 29.75 30000
4.3687262535095215 29.92 30000
4.467757225036621 30.1 30000
4.5660600662231445 30.27 6880.731000009692
4.665517807006836 30.44 6604.471697361074
4.76358962059021 30.62 6430.117638145904
4.861642599105835 30.8 6289.597638400267
4.960338830947876 30.98 6179.767385445355
5.058212518692017 31.16 6009.511638156236
5.156570196151733 31.34 5861.490612899311
5.255876779556274 31.53 5730.481727255594
5.3533079624176025 31.71 5562.6456383996365
5.452549695968628 31.89 5409.509612905917
5.551061630249023 32.08 5238.378340541875
5.650175333023071 32.27 5105.951073307634
5.748905897140503 32.45 4932.743638403241
5.846307277679443 32.64 4754.289340545212
5.945422649383545 32.84 4596.4747613826985
6.043484210968018 33.03 4406.351340540008
6.142524480819702 33.22 4233.083340276255
6.241678237915039 33.41 4088.230073504042
6.340195655822754 33.6 3883.5743405410462
6.436978578567505 33.79 3704.948340281601
6.533865451812744 33.98 3522.26092473448
6.63282036781311 34.17 3372.9647272672387
6.730458736419678 34.36 3159.580340532726
6.831270694732666 34.55 2971.591924735649
6.928209066390991 34.74 2816.0257272692043
7.024712800979614 34.92 2615.9486129080237
7.123569488525391 35.1 2437.067638399306
7.222702741622925 35.26 2295.9002341336527
7.321650981903076 35.43 2135.462697179289
7.4201624393463135 35.58 1976.3995320016195
7.518621444702148 35.72 1840.2698296902993
7.617643117904663 35.86 1711.3916331101352
7.716863632202148 35.99 1562.2281277336665
7.8156938552856445 36.1 1463.1647233324477
7.915140628814697 36.21 1356.0795688736696
8.013599872589111 36.32 1217.5677233357578
8.112176656723022 36.42 1114.8580213425644
8.211434125900269 36.51 1032.2131927134778
8.31025505065918 36.59 934.7296169762602
8.409942150115967 36.66 859.1291828148081
8.50832223892212 36.72 800.9325454743949
8.607467889785767 36.78 714.9162128132634
8.706138849258423 36.83 657.9635591566976
8.803206205368042 36.87 614.7933636550379
8.902617454528809 36.91 550.3832473333515
9.001172065734863 36.94 513.2431064134774
9.09982442855835 36.96 485.416181835192
9.19886064529419 36.98 443.67862367502784
9.297454357147217 36.99 425.8397021447491
9.395789623260498 37.0 395.5036880929755
9.494549989700317 37.0 385.87800001655694
9.593721151351929 37.0 367.07800000836113
9.691444873809814 37.0 348.27800002344844
9.790442705154419 36.99 345.7613119344908
9.889240741729736 36.98 338.61329790833685
9.987259149551392 36.96 350.8275957548191
10.086735248565674 36.94 346.7536238527252
10.184943437576294 36.92 351.63359578499274
10.284119367599487 36.9 354.19237637007996
10.382929801940918 36.87 369.38972730328845
10.481545209884644 36.84 386.73589362265244
10.579116821289062 36.81 400.2460645391229
10.67748737335205 36.77 424.8816363914569
10.776869773864746 36.73 455.43975271553114
10.875378370285034 36.69 479.0961914882215
10.975213527679443 36.65 494.75663638796914
11.074297189712524 36.61 526.4307527119502
11.17249059677124 36.56 571.9474893528796
11.269092321395874 36.51 607.7534894301581
11.367471933364868 36.47 615.2362477056078
11.465460538864136 36.42 668.3824893503751
11.564241409301758 36.37 705.5044894265975
11.660716772079468 36.31 764.6461290598282
11.75937032699585 36.26 781.7245454851393
11.858683109283447 36.21 828.0874893583668
11.95701551437378 36.15 888.7171290573909
12.055139780044556 36.09 926.7564545745031
12.153605699539185 36.03 987.1481290595825
12.25284218788147 35.97 1037.3437872250458
12.350335597991943 35.91 1078.0494545724844
12.447849988937378 35.85 1140.1151290574253
12.546001434326172 35.79 1192.0027872236337
12.643503665924072 35.73 1245.140787308194
12.741524934768677 35.67 1289.053871551117
12.840896606445312 35.61 1352.1037872229592
12.939343214035034 35.55 1406.9337873061613
13.038173198699951 35.49 1452.8088715500735
13.135306596755981 35.43 1517.55078730671
13.234375476837158 35.36 1594.805085093885
13.333283185958862 35.3 1632.1128715502052
13.43125319480896 35.24 1698.640787305387
13.529454946517944 35.18 1757.6531290570274
13.627483367919922 35.12 1815.838787225974
13.725935459136963 35.06 1865.8944545722113
13.825067043304443 35.0 1935.8651290566193
13.92297625541687 34.94 1995.7427872263036
14.021037578582764 34.89 2028.9835596782982
14.119449615478516 34.83 2108.5397872263234
14.218319177627563 34.79 2129.237191491774
14.316914081573486 34.74 2192.3194894233857
14.416361808776855 34.69 2238.3785596306143
14.511280536651611 34.65 2278.350191541577
14.612279653549194 34.61 2322.0161914904734
14.708532094955444 34.58 2341.563935787915
14.807456731796265 34.54 2400.918191542012
14.906288862228394 34.51 2425.1800645365747
15.003623247146606 34.49 2438.99259575567
15.102723836898804 34.46 2480.9287272957076
15.201719284057617 34.44 2500.3693763647507
15.29965853691101 34.42 2525.592595756928
15.39913821220398 34.4 2549.2046238814028
15.497166156768799 34.39 2557.2282978880403
15.595669269561768 34.37 2593.7885957583335
15.694328546524048 34.36 2598.662311950766
15.792484760284424 34.35 2616.2362978893507
15.890411853790283 34.34 2632.440297897545
15.989490747451782 34.33 2648.2793119423413
16.08754324913025 34.33 2645.4030000231014
16.186727046966553 34.33 2651.701000018047
16.28424882888794 34.33 2657.9320000176103
16.380810260772705 34.33 2665.3020000166744
16.480169534683228 34.33 2671.60000001942
16.579166412353516 34.33 2677.831000018983
16.677517890930176 34.33 2685.201000018047
16.774985790252686 34.34 2670.586311844809
16.87326169013977 34.34 2687.543000020316
16.972739934921265 34.35 2673.0147021552807
17.07223129272461 34.36 2671.4546880872726
17.169801950454712 34.36 2686.6450000216723
17.268107652664185 34.37 2671.928702136046
17.36849045753479 34.39 2650.8673761763066
17.4670147895813 34.39 2674.9500000227704
17.565247535705566 34.4 2659.9517021373704
17.6632297039032 34.41 2657.846688099511
17.76168727874756 34.42 2651.8347021362265
17.861043214797974 34.43 2647.1927021517463
17.959367513656616 34.44 2644.7606881005477
18.057619333267212 34.45 2638.4667021374894
18.1572368144989 34.46 2633.3743118452276
18.256228923797607 34.47 2630.8660909252226
18.354961156845093 34.48 2624.2067021517164
18.453638315200806 34.5 2597.989623673491
18.55238103866577 34.51 2605.794090926344
18.64894461631775 34.53 2577.750623672499
18.7482750415802 34.54 2582.9417021522822
18.8459894657135 34.56 2556.4394042863737
18.94449496269226 34.57 2563.2286880873644
19.04359745979309 34.58 2555.7127021531637
19.143311738967896 34.6 2528.834404256085
19.240533590316772 34.62 2515.9043761759785
19.33943271636963 34.63 2517.0927021537386
19.437325716018677 34.65 2489.7444042570587
19.535355806350708 34.66 2493.4303118457965
19.635204076766968 34.68 2469.521181834011
19.732726573944092 34.69 2469.9787021517122
19.83182954788208 34.71 2441.808623673624
19.930351734161377 34.73 2428.1021818347235
20.02957558631897 34.75 2407.1036236730847
20.127696990966797 34.76 2410.226702151966
20.22759461402893 34.78 2385.103181835226
20.32634997367859 34.8 2363.639623673641
20.425623416900635 34.82 2345.5604042845553
20.524179697036743 34.84 2330.2323761554167
20.62084698677063 34.86 2308.620404284154
20.72001838684082 34.87 2310.4807021523893
20.817277193069458 34.89 2283.96937615585
20.915677547454834 34.91 2261.8874042843822
21.01346707344055 34.93 2242.545404257493
21.113256692886353 34.95 2223.015404284045
21.211074829101562 34.97 2206.270376175665
21.308356523513794 34.98 2204.168702138598
21.40766453742981 35.0 2173.301623673874
21.505587339401245 35.02 2156.4051818353655
21.604454040527344 35.04 2132.934404283934
21.70369529724121 35.06 2112.1476236737744
21.799347162246704 35.07 2112.3567021513854
21.89975666999817 35.09 2083.6653761560756
21.998273611068726 35.11 2059.703404283788
22.09728980064392 35.13 2038.4814042832447
22.195765018463135 35.15 2019.774376156025
22.294307708740234 35.17 1995.2484042834708
22.39290475845337 35.19 1973.4624042585656
22.49250864982605 35.2 1973.3846880972274
22.590922117233276 35.21 1959.946702150654
22.68950390815735 35.23 1927.1464042583423
22.788268089294434 35.24 1926.6326880967845
22.88727617263794 35.25 1912.8187021397819
22.986774682998657 35.25 1921.1070000196332
23.08448100090027 35.26 1899.098688096228
23.183499097824097 35.27 1885.0967021393549
23.28226137161255 35.28 1872.3783118476283
23.3811457157135 35.28 1880.051000020814
23.480696201324463 35.29 1856.686702151927
23.579469919204712 35.29 1864.6280000198167
23.677304983139038 35.29 1861.4380000202218
23.77641248703003 35.29 1858.741000020411
23.874926805496216 35.29 1856.0150000192225
23.973310708999634 35.28 1872.0259091116736
24.070512294769287 35.28 1860.3310000197944
24.170401096343994 35.27 1878.4312978863863
24.269511222839355 35.27 1865.2550000207225
24.366646766662598 35.26 1881.5953119412843
24.465757608413696 35.25 1890.7092978859732
24.564520359039307 35.24 1898.453297900957
24.662696361541748 35.23 1904.4823119408077
24.76255750656128 35.22 1913.8782979013558
24.861287593841553 35.21 1921.9042978873183
24.96060609817505 35.2 1928.260311940495
25.059327602386475 35.19 1937.9382979008383
25.15827465057373 35.18 1946.378688192865
25.257343769073486 35.17 1952.8469091123675