time temp control
0.06765985488891602 24.8 30000
0.16804242134094238 24.8 30000
0.2671501636505127 24.8 30000
0.3649120330810547 24.8 30000
0.46305274963378906 24.8 30000
0.5628390312194824 24.81 30000
0.6607990264892578 24.81 30000
0.7582089900970459 24.82 30000
0.8547515869140625 24.83 30000
0.9541990756988525 24.84 30000
1.0538108348846436 24.86 30000
1.1520707607269287 24.88 30000
1.2498598098754883 24.91 30000
1.3488044738769531 24.94 30000
1.448300838470459 24.98 30000
1.5468595027923584 25.03 30000
1.6460061073303223 25.09 30000
1.7431731224060059 25.15 30000
1.8419129848480225 25.22 30000
1.9407932758331299 25.3 30000
2.0395989418029785 25.39 30000
2.138235092163086 25.49 30000
2.235870599746704 25.6 30000
2.3339953422546387 25.71 30000
2.4337801933288574 25.83 30000
2.533348560333252 25.95 30000
2.632228136062622 26.07 30000
2.7299327850341797 26.21 30000
2.8271372318267822 26.34 30000
2.9273412227630615 26.48 30000
3.0261499881744385 26.63 30000
3.125338315963745 26.77 30000
3.2233524322509766 26.93 30000
3.321791172027588 27.08 30000
3.421987295150757 27.25 30000
3.5202441215515137 27.41 30000
3.619114637374878 27.58 30000
3.716840982437134 27.75 30000
3.8150503635406494 27.92 30000
3.913477659225464 28.09 30000
4.0128490924835205 28.27 30000
4.111430644989014 28.45 30000
4.210398197174072 28.62 30000
4.307945013046265 28.81 30000
4.407366037368774 28.99 30000
4.506402015686035 29.18 30000
4.604793548583984 29.36 30000
4.703733921051025 29.55 30000
4.802893400192261 29.74 30000
4.900964260101318 29.93 30000
4.999904632568359 30.13 30000
5.098858118057251 30.32 30000
5.196784496307373 30.52 30000
5.2957117557525635 30.72 30000
5.3926920890808105 30.91 30000
5.491124391555786 31.11 30000
5.589762210845947 31.31 30000
5.69123387336731 31.51 30000
5.786923408508301 31.71 30000
5.8860390186309814 31.91 30000
5.98380446434021 32.11 30000
6.0818772315979 32.31 30000
6.178313732147217 32.51 30000
6.277479887008667 32.71 30000
6.376509666442871 32.91 30000
6.4755024909973145 33.11 30000
6.5716047286987305 33.31 30000
6.671113014221191 33.51 30000
6.770216703414917 33.71 30000
6.867711782455444 33.91 1837.7399999984832
6.966733932495117 34.12 1410.1175483691754
7.065683126449585 34.32 1229.5500426466335
7.163064002990723 34.52 1034.0620426485975
7.260996580123901 34.73 847.1104494336479
7.359234809875488 34.93 627.6630426472283
7.457609176635742 35.13 426.4410423847037
7.557668447494507 35.33 252.12376156084682
7.655150890350342 35.54 -2.870255223517443
7.75258207321167 35.74 -199.18795761373957
7.850032567977905 35.94 -410.21776345149226
7.949799537658691 36.15 -608.7230909272926
8.047670125961304 36.35 -843.2699573535493
8.14665699005127 36.55 -1059.9727634544067
8.244789600372314 36.75 -1245.987181837309
8.343952655792236 36.95 -1497.3577634507042
8.442667007446289 37.16 -1736.0122552253624
8.541626453399658 37.36 -1920.3861818415915
8.639943361282349 37.57 -2198.2754516273753
8.739263534545898 37.77 -2411.2729573640545
8.83846640586853 37.97 -2614.3662386273136
8.936681270599365 38.18 -2894.176255226527
9.036137342453003 38.38 -3115.30995737268
9.135123252868652 38.57 -3305.7689267004757
9.234054803848267 38.77 -3579.6609573661854
9.331479787826538 38.96 -3796.246659718929
9.430972337722778 39.13 -3965.0993026786196
9.529883861541748 39.31 -4221.139361641257
9.62862229347229 39.48 -4422.613063963725
9.726924896240234 39.63 -4596.111322577752
9.825315952301025 39.77 -4754.5637272680215
9.92508840560913 39.91 -4962.381170147077
10.024141311645508 40.03 -5109.256258069536
10.12300157546997 40.14 -5246.764000001489
10.221070766448975 40.25 -5423.86856988613
10.319833517074585 40.34 -5541.52968081658
10.419186353683472 40.42 -5658.132272736186
10.518108606338501 40.48 -5760.885129032876
10.616148233413696 40.55 -5893.007085092764
10.715541362762451 40.6 -5975.450559643326
10.813774585723877 40.63 -6044.415893610608
10.910869121551514 40.66 -6127.619893633789
11.009252071380615 40.68 -6190.373595749601
11.107837438583374 40.69 -6250.292311941083
11.207671165466309 40.7 -6315.336297856995
11.306203126907349 40.7 -6366.828000007431
11.405003547668457 40.69 -6399.675702163035
11.502914190292358 40.68 -6443.0677021070205
11.601733684539795 40.67 -6485.6843118114075
11.701131105422974 40.65 -6520.405181792175
11.800849914550781 40.62 -6529.5001063962245
11.899067640304565 40.59 -6551.143935477312
11.997998714447021 40.56 -6587.289272711735
12.097047567367554 40.52 -6582.887247293143
12.195224046707153 40.47 -6574.124510668223
12.292585611343384 40.43 -6610.682363630902
12.392117261886597 40.38 -6593.31655913167
12.489259958267212 40.32 -6573.25821281123
12.586391687393188 40.27 -6583.434510573311
12.6841881275177 40.21 -6578.369128474437
12.782353401184082 40.15 -6557.995212821205
12.880833625793457 40.09 -6545.841212703769
12.98087191581726 40.02 -6530.16881656275
13.079407453536987 39.95 -6496.450914813128
13.17852783203125 39.88 -6472.322914925352
13.276706457138062 39.81 -6464.999816571835
13.375066041946411 39.74 -6429.307914823798
13.474679470062256 39.66 -6381.09249460452
13.572432518005371 39.58 -6345.059617064049
13.67112421989441 39.51 -6346.139636354924
13.770525693893433 39.43 -6284.953494614111
13.868019104003906 39.35 -6246.758617072691
13.966104984283447 39.27 -6225.013504533835
14.065452814102173 39.19 -6172.6876170636015
14.163454055786133 39.1 -6110.589319212714
14.26185131072998 39.02 -6096.757504543096
14.361482858657837 38.93 -6021.349319204099
14.459904670715332 38.84 -5967.445319056566
14.558967351913452 38.75 -5931.496192707237
14.655347347259521 38.66 -5862.724319210732
14.754513263702393 38.57 -5806.282319065236
14.853062868118286 38.49 -5786.673504636468
14.95201826095581 38.4 -5706.283319058754
15.051070213317871 38.3 -5626.665021323152
15.148627042770386 38.21 -5576.126806442924
15.246943712234497 38.12 -5535.402818165155
15.346866846084595 38.03 -5458.625806436591
15.445529222488403 37.93 -5376.559021326734
15.543067932128906 37.84 -5342.36381817123
15.642245531082153 37.75 -5262.982806442829
15.740829706192017 37.66 -5199.016319199572
15.839944124221802 37.57 -5150.205192607099
15.938787937164307 37.48 -5070.341319193938
16.03631067276001 37.38 -4982.075021336003
16.13524889945984 37.29 -4940.85019261293
16.233770608901978 37.19 -4837.622021330889
16.333548307418823 37.1 -4778.000319064184
16.430768728256226 37.01 -4723.085192705293
16.530929565429688 36.92 -4637.957319201672
16.628686904907227 36.82 -4544.427021188481
16.727129220962524 36.73 -4480.124806440956
16.82606315612793 36.64 -4423.120818165274
16.92466974258423 36.55 -4333.764319190863
17.023009777069092 36.46 -4256.312806444076
17.122106790542603 36.36 -4177.137909076705
17.220696687698364 36.27 -4093.08380644135
17.31942367553711 36.18 -4015.2053191920204
17.418848991394043 36.09 -3951.121818171261
17.517910480499268 36.0 -3855.4658064440005
17.615865230560303 35.91 -3775.049319193572
17.713510751724243 35.83 -3726.4465045435695
17.81153416633606 35.74 -3621.0523191915154
17.910414457321167 35.65 -3537.1623191941685
18.00877070426941 35.56 -3452.4263190713796
18.10549235343933 35.47 -3380.725192704027
18.204484462738037 35.39 -3301.853616951894
18.30180311203003 35.3 -3204.0353191908125
18.400893211364746 35.22 -3148.783504625508
18.499854564666748 35.13 -3037.6553190724776
18.59770631790161 35.05 -2967.843494617957
18.694974184036255 34.96 -2867.744319190855
18.7943594455719 34.88 -2809.441727263838
18.893081188201904 34.79 -2693.441806445305
18.990960121154785 34.71 -2622.3836170576724
19.089202642440796 34.63 -2550.0625045473375
19.18818712234497 34.55 -2454.1206170580913
19.285906314849854 34.46 -2348.406319188189
19.38413643836975 34.38 -2283.998504547092
19.48304581642151 34.3 -2185.7066170568214
19.58215880393982 34.22 -2098.3746169573137
19.68204665184021 34.14 -2020.7125046237682
19.780155420303345 34.06 -1920.1646170541408
19.879431009292603 33.98 -1830.5766169564213
19.97869038581848 33.9 -1750.2985046215638
20.07715654373169 33.83 -1668.2269148400874
20.174994945526123 33.75 -1565.838617059492
20.27310824394226 33.67 -1472.5544946196092
20.372137546539307 33.6 -1409.5396363594912
20.471157789230347 33.52 -1293.3904946225312
20.570276021957397 33.45 -1220.3739149246314
20.667921781539917 33.37 -1124.1847272643092
20.766974925994873 33.3 -1035.8331827923535
20.866998434066772 33.24 -970.7282127885123
20.9642436504364 33.17 -880.3908164835184
21.063667058944702 33.11 -803.015212792006
21.16004180908203 33.04 -703.9529149162732
21.260071277618408 32.97 -622.0738164802167
21.358802318572998 32.91 -542.8182127878846
21.457423210144043 32.85 -462.6082127250652
21.556042194366455 32.79 -387.3031284662957
21.656095027923584 32.73 -297.1812127826582
21.752753973007202 32.67 -215.2792127211966
21.8497531414032 32.61 -132.36587097123186
21.949764251708984 32.55 -55.38654545905163
22.0479793548584 32.49 37.49178720505697
22.148043870925903 32.44 101.23344086116903
22.247140645980835 32.38 190.83545454589301
22.344574213027954 32.33 264.88444085576776
22.44216775894165 32.27 360.61278720917323
22.541558027267456 32.21 442.0184545514503
22.640822887420654 32.16 517.6484408612079
22.740248203277588 32.11 594.2424893475703
22.837846517562866 32.05 688.2518715816055
22.936216354370117 32.0 764.5974893417304
23.036097288131714 31.95 843.2674893542332
23.134342193603516 31.9 919.7375596555606
23.233091831207275 31.85 1006.6674893480807
23.332385063171387 31.8 1086.747489389821
23.431084632873535 31.76 1145.5692476911545
23.53003978729248 31.71 1242.9894893552298
23.62817120552063 31.66 1324.3854893959103
23.7271671295166 31.61 1406.4844408532954
23.8258798122406 31.57 1466.814636352772
23.922905206680298 31.52 1566.354489337294
24.022175073623657 31.48 1628.9097526876699
24.11888337135315 31.43 1720.623545451816
24.21708106994629 31.39 1791.7527526803292
24.31512141227722 31.35 1865.6051914749091
24.414918899536133 31.31 1940.2911914900367
24.512071132659912 31.27 2015.0922477234103
24.611926555633545 31.23 2096.386191482553
24.709177494049072 31.2 2151.467893625713
24.809003829956055 31.17 2218.8229357700598
24.906371593475342 31.14 2289.498893623049
25.005061149597168 31.12 2335.3325957524244
25.103970289230347 31.1 2394.9146238560593
25.201923370361328 31.08 2454.6905957442896
25.300034761428833 31.07 2490.9942978663335
25.400171756744385 31.06 2542.4763119422664
25.498302459716797 31.05 2591.07029787136
25.59688091278076 31.05 2617.1669999879095
25.69529104232788 31.05 2654.2970000040955
25.79381275177002 31.06 2678.546090906532
25.891366243362427 31.07 2703.433311823231
25.991315364837646 31.08 2730.3957021443944
26.08919644355774 31.09 2764.478688056279
26.18708825111389 31.1 2789.6747021363353
26.287305116653442 31.12 2795.5084042845347
26.38476872444153 31.14 2820.5103761326563
26.482524394989014 31.16 2833.678404276545
26.582273483276367 31.18 2849.586404221378
26.681241035461426 31.2 2865.3064042633005
26.77999711036682 31.22 2889.4363761755153
26.879035472869873 31.25 2881.1201063485514
26.97831964492798 31.28 2896.0600642456834
27.07725715637207 31.31 2896.354106341161
27.176326751708984 31.33 2921.490404263426
27.27229619026184 31.36 2914.3609354780656
27.37112784385681 31.39 2929.0562727152205
27.470088958740234 31.42 2927.3649354706863
27.569082260131836 31.45 2931.078106400522
27.668310403823853 31.48 2944.440272722517
27.76731848716736 31.52 2921.0662473052553
27.8663113117218 31.55 2934.5921064074682
27.96239185333252 31.59 2926.9787522625024
28.06071639060974 31.63 2912.8008085326182
28.156108140945435 31.66 2924.8351064140047
28.255489587783813 31.7 2905.21680846871
28.354884386062622 31.74 2906.6067523222127
28.453084707260132 31.78 2891.018808462327
28.551053047180176 31.82 2880.9108085280627
28.649973154067993 31.85 2900.276064250238
28.747724771499634 31.89 2874.4798084692097
28.845946788787842 31.93 2862.573247299534
28.94505286216736 31.97 2851.5128085323267
29.044461965560913 32.01 2850.592363630707
29.14285945892334 32.05 2831.380247305853
29.241110801696777 32.09 2819.1918085381394
29.341383457183838 32.13 2816.3307522642012
29.43850064277649 32.17 2797.0768085321047
29.537548303604126 32.22 2762.5705106757982
29.63646364212036 32.26 2768.930752270353
29.7339026927948 32.3 2748.4548085377232
29.833158016204834 32.34 2733.458808464942
29.9320330619812 32.38 2727.872752314936
30.031085968017578 32.42 2706.268808542621
30.127697229385376 32.46 2690.1448084707604
30.22674322128296 32.5 2672.937247301456
30.32634949684143 32.54 2666.6443636209524
30.423113346099854 32.58 2643.2028085283137
30.522210836410522 32.62 2624.879247306387
30.620269775390625 32.66 2617.2663636260513
30.71916961669922 32.7 2592.0092473016057
30.81747841835022 32.75 2552.978510663511
30.916457653045654 32.79 2554.116363630682
31.014963150024414 32.83 2527.6502473063356
31.114094018936157 32.87 2508.129808535441
31.212437868118286 32.91 2496.76675226629
31.312331438064575 32.95 2470.1808085309817
31.41013479232788 32.99 2449.074808539227
31.50898814201355 33.03 2427.592808471666
31.606279373168945 33.06 2433.769064239893
31.704315662384033 33.1 2396.598808467993
31.80289912223816 33.14 2374.0828085283165
31.902153253555298 33.18 2359.776752321206
32.00103306770325 33.22 2330.6528084721904
32.10012245178223 33.26 2306.3772473033814
32.19791913032532 33.3 2291.724363623939
32.296573638916016 33.34 2261.138808528172
32.394232511520386 33.38 2235.747247306748
32.490119218826294 33.42 2211.0568085335995
32.5880446434021 33.46 2193.6987522678287
32.687455892562866 33.5 2161.942808530282
32.78469133377075 33.53 2156.3991064040047
32.88408637046814 33.57 2127.2037522712103
32.98312973976135 33.61 2094.4138085332124
33.080896854400635 33.65 2067.1038084703287
33.18045473098755 33.69 2039.4178085283984
33.279024600982666 33.72 2038.4000642402978
33.37704801559448 33.75 2015.7581063541747
33.474164724349976 33.79 1975.9152473048355
33.57308888435364 33.82 1974.6332727181805
33.672091245651245 33.86 1930.0688085282345
33.77014088630676 33.89 1920.686935479928
33.86934423446655 33.92 1907.552272720618
33.968382835388184 33.95 1882.3319354777327
34.067617893218994 33.98 1862.263106397208
34.16657304763794 34.0 1866.99618181478
34.26533079147339 34.03 1831.940935479885
34.362048864364624 34.05 1831.852404266772
34.46060276031494 34.08 1799.862106352597
34.55798602104187 34.09 1822.5216880782418
34.6553750038147 34.11 1798.785404268477
34.754096031188965 34.13 1786.9634042355528
34.85106635093689 34.14 1795.4853118239587
34.9502809047699 34.16 1777.2961818114602
35.04907536506653 34.17 1782.6417021312716
35.147544145584106 34.18 1780.1533118256525
35.24540901184082 34.19 1780.725090905256
35.34189295768738 34.19 1797.3489999967899
35.43833947181702 34.2 1784.2307021323547
35.537172079086304 34.21 1781.6567021356013
35.63573598861694 34.21 1800.905999998446
35.73405480384827 34.22 1787.5997021339435
35.83226704597473 34.22 1805.56999999576
35.92983841896057 34.22 1812.9019999989564
36.02864861488342 34.22 1821.4040000032423
36.1284966468811 34.23 1808.00370211656
36.227641582489014 34.23 1825.8029999969337
36.32641959190369 34.22 1853.4739090879043
36.42345714569092 34.22 1851.7149999990386
36.52170705795288 34.22 1858.96899999853
36.6191987991333 34.21 1886.7499090894864
36.71785831451416 34.21 1885.0059999969096
36.81722569465637 34.21 1892.432000000147
36.91576933860779 34.21 1899.8580000033842
37.013965368270874 34.2 1927.7523119302423
37.11292624473572 34.2 1926.0980000017432
37.21170997619629 34.2 1933.6179999957083
37.31049609184265 34.2 1942.338000000104
37.409149169921875 34.19 1970.5902978711367
37.508837938308716 34.19 1967.5659999973182
37.605616331100464 34.19 1976.395000001769
37.70396327972412 34.18 2004.7412978764569
37.80272388458252 34.18 2001.8109999989413
37.90145564079285 34.18 2010.7490000034472
38.00084686279297 34.18 2018.4569999972614
38.09934592247009 34.18 2026.0829999967268
38.19833588600159 34.18 2035.1029999955813
38.29760408401489 34.18 2042.8109999989417
38.39578437805176 34.18 2050.436999998407
38.49331831932068 34.18 2058.145000001767
38.590609550476074 34.19 2047.7996880650132
38.68933653831482 34.19 2064.58800000011
38.789142370224 34.19 2072.202000003429
38.887105226516724 34.2 2061.7476880667227
38.986552238464355 34.2 2078.442000001785
39.08411931991577 34.21 2065.2297021149516
39.18265914916992 34.21 2084.4790000001676
39.28092646598816 34.22 2071.1727021356655
39.37881541252136 34.22 2089.142999997482
39.47785949707031 34.23 2075.5513118241875
39.5757269859314 34.24 2075.573090903847
39.67299294471741 34.24 2091.8079999990296
39.77203822135925 34.25 2078.030311825748
39.870887756347656 34.26 2077.832090905449
39.96770143508911 34.27 2072.959311824228
40.06703472137451 34.28 2069.8417021322816
40.165621280670166 34.29 2066.515702135193
40.2643837928772 34.3 2065.609688066816
40.36329460144043 34.31 2060.631702133707
40.46197199821472 34.33 2036.2914042346135
40.56008768081665 34.34 2045.5876880780015
40.658692359924316 34.35 2040.2337021349513
40.75781273841858 34.36 2036.2497021169506
40.85613989830017 34.38 2015.2973761572657
40.955870389938354 34.39 2018.7417021157544
41.054091691970825 34.4 2014.38170213139
41.1533477306366 34.42 1992.9933761583104
41.25172710418701 34.43 1996.0617021171008
41.34913682937622 34.44 1991.1553118248191
41.44847917556763 34.45 1988.8670909047717
41.54692196846008 34.46 1982.395702131354
41.645649909973145 34.47 1977.2103118259165
41.74524784088135 34.48 1974.5920909059248
41.841309547424316 34.49 1967.6733118248471
41.94145059585571 34.5 1962.4877021319994
42.04009675979614 34.5 1978.6259999990016
42.139994382858276 34.51 1962.4303118258897
42.239022970199585 34.52 1957.056702132938
42.3379545211792 34.53 1951.4747021162266
42.43689775466919 34.54 1947.9526880776534
42.53483200073242 34.55 1940.7187021337775
42.6336350440979 34.55 1955.5869999980835
42.73186922073364 34.56 1941.2086880785107
42.83052182197571 34.57 1933.7867021163784
42.92920446395874 34.58 1927.7347021312767
43.028069734573364 34.59 1923.6676880792397
43.12561058998108 34.59 1936.695999998132
43.22482395172119 34.59 1940.5089999978647
43.32306957244873 34.6 1925.8180909052462
43.421852350234985 34.6 1938.6689999989474
43.522101163864136 34.61 1921.5433118259004
43.6209819316864 34.61 1936.5859999981503
43.718772411346436 34.62 1919.36731182511
43.815208435058594 34.62 1933.6919999994618
43.914517402648926 34.62 1937.2640000010188
44.01286005973816 34.62 1941.405999998683
44.11115837097168 34.63 1924.2457021324858
44.21003770828247 34.63 1938.3619999974028
44.30896830558777 34.63 1942.3949999994359
44.40606665611267 34.63 1945.873000000952
44.50497794151306 34.63 1949.350999998161
44.60314726829529 34.63 1953.384000000194
44.702378273010254 34.63 1956.8619999974026
44.801968812942505 34.64 1939.6077021311792
44.89984393119812 34.64 1954.170000000858
44.999062061309814 34.64 1957.5539999981422
45.09656572341919 34.64 1960.9019999979073
45.19609808921814 34.64 1964.2859999993827
45.29209327697754 34.64 1968.2459999988798
45.391576051712036 34.64 1971.593999998645
45.4908401966095 34.64 1974.9780000001203
45.588093519210815 34.64 1978.9019999979073
45.68792247772217 34.64 1982.2859999993827
45.787113666534424 34.64 1985.670000000858
45.88541007041931 34.65 1970.3106880669313
45.985169887542725 34.65 1982.7750000001429
46.08345437049866 34.65 1986.0649999975026
46.18209910392761 34.65 1989.879999999426
46.28195285797119 34.66 1972.4377021331206
46.378854274749756 34.66 1986.2719999982564
46.47611427307129 34.66 1989.4339999980346
46.57418465614319 34.66 1993.1739999975598
46.67311406135559 34.66 1996.369999998953
46.77241826057434 34.67 1978.6863118259305
46.87109422683716 34.67 1993.068999998272
46.96818542480469 34.67 1996.1379999980566
47.06584310531616 34.67 1999.2399999994088
47.16370153427124 34.68 1981.6097021330215
47.26258301734924 34.68 1995.7359999987552
47.360764265060425 34.68 1998.7440000000665
47.459906339645386 34.68 2001.7519999976523
47.55753421783447 34.68 2005.2399999994109
