time temp control
0.026927947998046875 21.45 30000
0.12632083892822266 21.45 30000
0.2232975959777832 21.45 30000
0.3212902545928955 21.45 30000
0.42122697830200195 21.45 30000
0.5197935104370117 21.45 30000
0.6186308860778809 21.46 30000
0.7187314033508301 21.47 30000
0.8167915344238281 21.48 30000
0.9159398078918457 21.49 30000
1.0139753818511963 21.52 30000
1.1124086380004883 21.54 30000
1.2112176418304443 21.58 30000
1.3081459999084473 21.61 30000
1.4058477878570557 21.66 30000
1.50412917137146 21.71 30000
1.6032376289367676 21.78 30000
1.7019274234771729 21.85 30000
1.8003461360931396 21.93 30000
1.8995225429534912 22.02 30000
1.9982147216796875 22.12 30000
2.097435235977173 22.22 30000
2.1965653896331787 22.33 30000
2.2951207160949707 22.45 30000
2.3949458599090576 22.58 30000
2.493396520614624 22.71 30000
2.5925142765045166 22.84 30000
2.691624402999878 22.99 30000
2.789168119430542 23.13 30000
2.8881564140319824 23.28 30000
2.9872400760650635 23.44 30000
3.085977554321289 23.6 30000
3.1854171752929688 23.76 30000
3.2851836681365967 23.92 30000
3.383389472961426 24.09 30000
3.48233699798584 24.26 30000
3.581791877746582 24.43 30000
3.6806435585021973 24.61 30000
3.779172420501709 24.78 30000
3.878478765487671 24.96 30000
3.9779388904571533 25.15 30000
4.0755627155303955 25.33 30000
4.17480206489563 25.51 30000
4.272363185882568 25.69 30000
4.372002363204956 25.88 30000
4.469696044921875 26.06 30000
4.568294525146484 26.25 30000
4.666099786758423 26.44 30000
4.763900279998779 26.63 30000
4.86114501953125 26.82 30000
4.960078477859497 27.01 30000
5.058209657669067 27.2 30000
5.157090663909912 27.4 30000
5.2556610107421875 27.59 30000
5.353619813919067 27.79 30000
5.452404737472534 27.98 30000
5.5501868724823 28.18 30000
5.648421287536621 28.38 30000
5.74524998664856 28.58 30000
5.844717264175415 28.77 30000
5.943751335144043 28.97 30000
6.042814254760742 29.17 30000
6.140137672424316 29.37 30000
6.237847089767456 29.57 30000
6.336087465286255 29.76 30000
6.435749769210815 29.96 30000
6.534883975982666 30.16 30000
6.634290933609009 30.37 30000
6.732630729675293 30.56 30000
6.831485033035278 30.76 30000
6.929487466812134 30.96 30000
7.028410196304321 31.16 30000
7.1270222663879395 31.36 30000
7.225527286529541 31.55 30000
7.3243794441223145 31.75 30000
7.423251628875732 31.95 30000
7.522485017776489 32.15 30000
7.621472358703613 32.35 30000
7.72070050239563 32.55 30000
7.818314552307129 32.74 30000
7.917439937591553 32.94 30000
8.01468539237976 33.13 5000
8.110580444335938 33.33 5000
8.210258960723877 33.52 5000
8.30817437171936 33.71 5000
8.40636396408081 33.9 5000
8.505180597305298 34.09 5000
8.604431629180908 34.29 5000
8.703374147415161 34.48 5000
8.80268383026123 34.67 5000
8.901028394699097 34.86 5000
8.999562978744507 35.05 5000
9.096174716949463 35.24 5000
9.195906162261963 35.43 5000
9.295604944229126 35.63 5000
9.394227743148804 35.82 5000
9.493549346923828 36.01 5000
9.592561721801758 36.2 5000
9.690692901611328 36.39 5000
9.788348197937012 36.58 5000
9.886213779449463 36.76 5000
9.98526120185852 36.95 5000
10.08355975151062 37.13 5000
10.182862043380737 37.32 5000
10.281901836395264 37.5 5000
10.380356550216675 37.68 5000
10.479819297790527 37.85 5000
10.579154014587402 38.01 5000
10.676198244094849 38.16 5000
10.775291204452515 38.31 5000
10.874835014343262 38.44 5000
10.973169803619385 38.56 5000
11.072367429733276 38.68 5000
11.172399044036865 38.79 5000
11.270019769668579 38.88 5000
11.368016004562378 38.97 5000
11.46757173538208 39.05 5000
11.564637899398804 39.13 5000
11.66387128829956 39.2 5000
11.762269258499146 39.27 5000
11.85947847366333 39.33 5000
11.956225156784058 39.39 5000
12.05366325378418 39.44 5000
12.152698755264282 39.49 5000
12.251814603805542 39.54 5000
12.351121664047241 39.58 5000
12.44891905784607 39.61 5000
12.548092365264893 39.65 5000
12.646613121032715 39.68 5000
12.74530577659607 39.71 5000
12.845178604125977 39.74 5000
12.943368434906006 39.76 5000
13.043117046356201 39.78 5000
13.141340494155884 39.8 5000
13.241228103637695 39.82 5000
13.340267181396484 39.83 5000
13.438125371932983 39.84 5000
13.53611421585083 39.85 5000
13.635086059570312 39.86 5000
13.733700037002563 39.87 5000
13.832843780517578 39.87 5000
13.932258605957031 39.87 5000
14.029633283615112 39.88 5000
14.12756633758545 39.87 5000
14.22554063796997 39.87 5000
14.325103282928467 39.87 5000
14.422887086868286 39.86 5000
14.522581100463867 39.85 5000
14.619642496109009 39.85 5000
14.717797040939331 39.84 5000
14.816549062728882 39.83 5000
14.915894985198975 39.83 5000
15.015204906463623 39.82 5000
15.114536046981812 39.81 5000
15.213307619094849 39.8 5000
15.311302900314331 39.79 5000
15.40951943397522 39.77 5000
15.50849437713623 39.76 5000
15.607125282287598 39.75 5000
15.705098867416382 39.73 5000
15.802702903747559 39.71 5000
15.902416467666626 39.69 5000
16.001145601272583 39.68 5000
16.098861694335938 39.66 5000
16.197931051254272 39.64 5000
16.297192335128784 39.63 5000
16.39458990097046 39.61 5000
16.494170427322388 39.59 5000
16.592426300048828 39.57 5000
16.69117259979248 39.56 5000
16.78940439224243 39.54 5000
16.888020753860474 39.52 5000
16.98654341697693 39.5 5000
17.085591554641724 39.49 5000
17.185181617736816 39.47 5000
17.283435344696045 39.45 5000
17.381295204162598 39.43 5000
17.481257915496826 39.41 5000
17.579553604125977 39.39 5000
17.678395748138428 39.37 5000
17.777012825012207 39.35 5000
17.87461233139038 39.33 5000
17.972678899765015 39.31 5000
18.072368144989014 39.28 5000
18.170191287994385 39.26 5000
18.267369985580444 39.24 5000
18.365689516067505 39.22 5000
18.46352744102478 39.21 5000
18.562458992004395 39.19 5000
18.66222834587097 39.17 5000
18.759307861328125 39.15 5000
18.85890817642212 39.13 5000
18.95469093322754 39.11 5000
19.052090167999268 39.09 5000
19.149232625961304 39.07 5000
19.248120307922363 39.05 5000
19.346959829330444 39.03 5000
19.444115161895752 39.0 5000
19.543321132659912 38.98 5000
19.643393516540527 38.96 5000
19.74128818511963 38.94 5000
19.839210033416748 38.92 5000
19.935932874679565 38.9 5000
20.035382986068726 38.88 5000
20.13424277305603 38.86 5000
20.233367919921875 38.84 5000
20.332282543182373 38.82 5000
20.431069135665894 38.8 5000
20.529831886291504 38.78 5000
20.629026889801025 38.76 5000
20.728657484054565 38.74 5000