time temp control
0.025132417678833008 23.96 30000
0.12389039993286133 23.96 30000
0.22304129600524902 23.96 30000
0.3197777271270752 23.96 30000
0.4200625419616699 23.96 30000
0.5198421478271484 23.96 30000
0.6185548305511475 23.96 30000
0.7176837921142578 23.97 30000
0.8154797554016113 23.99 30000
0.9132726192474365 24.0 30000
1.010014295578003 24.02 30000
1.1098008155822754 24.05 30000
1.2092645168304443 24.08 30000
1.3068251609802246 24.12 30000
1.405658483505249 24.16 30000
1.5044724941253662 24.21 30000
1.6030540466308594 24.27 30000
1.7012684345245361 24.33 30000
1.8004066944122314 24.4 30000
1.8982958793640137 24.49 30000
1.9983227252960205 24.58 30000
2.0976758003234863 24.68 30000
2.1951568126678467 24.79 30000
2.2935731410980225 24.89 30000
2.3936424255371094 25.02 30000
2.4934582710266113 25.14 30000
2.591327667236328 25.27 30000
2.691077947616577 25.41 30000
2.7898128032684326 25.55 30000
2.887549877166748 25.69 30000
2.9871344566345215 25.83 30000
3.0839827060699463 25.98 30000
3.1835262775421143 26.13 30000
3.2822353839874268 26.29 30000
3.3820459842681885 26.45 30000
3.479616641998291 26.61 30000
3.5787177085876465 26.78 30000
3.6790947914123535 26.95 30000
3.777423620223999 27.12 30000
3.873699903488159 27.29 30000
3.970531463623047 27.46 30000
4.068967819213867 27.64 30000
4.168128728866577 27.82 30000
4.267471790313721 28.0 30000
4.366346120834351 28.18 30000
4.464430093765259 28.37 30000
4.5619988441467285 28.56 30000
4.661417484283447 28.74 30000
4.7602715492248535 28.93 30000
4.858428955078125 29.12 30000
4.95779275894165 29.31 30000
5.053647756576538 29.5 30000
5.152608871459961 29.69 30000
5.250856637954712 29.89 30000
5.348062515258789 30.08 30000
5.446765899658203 30.27 30000
5.5478410720825195 30.47 30000
5.644139528274536 30.66 30000
5.743577003479004 30.86 30000
5.842415809631348 31.05 30000
5.9392924308776855 31.25 30000
6.0383734703063965 31.45 30000
6.1365647315979 31.65 30000
6.235575437545776 31.85 30000
6.333173751831055 32.04 30000
6.431488752365112 32.24 30000
6.531168222427368 32.44 30000
6.62996506690979 32.63 30000
6.728095531463623 32.83 30000
6.825521230697632 33.03 3312.1610000161436
6.9258716106414795 33.23 2947.967761369691
7.025035858154297 33.43 2733.44604265764
7.121215105056763 33.63 2546.3240423838
7.221494436264038 33.83 2388.3567615681854
7.316988468170166 34.02 2188.9273405254476
7.414561986923218 34.22 1985.6210423883717
7.5126261711120605 34.42 1788.727236549606
7.612589597702026 34.61 1645.343727255795
7.712357521057129 34.81 1407.091042651719
7.8098766803741455 35.0 1225.5559247226438
7.909612417221069 35.2 1045.8388181647815
8.0076322555542 35.39 829.7289247231768
8.106730222702026 35.59 615.7180426498337
8.205619812011719 35.78 457.17672725577745
8.303776502609253 35.98 205.73623654969668
8.402807235717773 36.17 17.664340514470133
8.501198530197144 36.37 -178.62723862632433
8.600820064544678 36.56 -401.93265948350216
8.697633743286133 36.76 -629.1149573584031
8.796179294586182 36.96 -847.5389576071301
8.89566159248352 37.16 -1041.8032384410424
8.993643283843994 37.35 -1272.534659720396
9.092370748519897 37.54 -1486.4106594804673
9.190117835998535 37.72 -1659.0686146047137
9.289790630340576 37.9 -1892.680361842987
9.386223554611206 38.07 -2082.5376989227325
9.485619306564331 38.24 -2259.927454545744
9.58478832244873 38.39 -2446.822468010091
9.684450387954712 38.54 -2631.460322584192
9.783647298812866 38.68 -2777.922727275993
9.88043761253357 38.81 -2955.867946230981
9.979861736297607 38.92 -3079.952276545413
10.079483985900879 39.03 -3217.2610000077516
10.17863416671753 39.12 -3342.35119354753
10.277694940567017 39.21 -3470.895680818947
10.375616550445557 39.28 -3556.023183505764
10.472023010253906 39.35 -3677.1610850750562
10.571083545684814 39.4 -3747.2444893576744
10.670703172683716 39.44 -3818.3421915091794
10.768564462661743 39.48 -3901.3182476982065
10.868580341339111 39.5 -3948.1975957381005
10.96727204322815 39.52 -4010.6855957302755
11.06557559967041 39.53 -4057.9603119417343
11.1643545627594 39.53 -4091.367999985583
11.26362681388855 39.52 -4112.651311809845
11.360320329666138 39.51 -4153.923090884265
11.45962142944336 39.5 -4184.675702127074
11.557286500930786 39.47 -4174.626935473469
11.654663562774658 39.45 -4207.438404274697
11.754410028457642 39.42 -4219.370064187591
11.853587627410889 39.38 -4205.511808530068
11.952579975128174 39.34 -4206.307808547854
12.051777362823486 39.3 -4219.033752265105
12.148591995239258 39.26 -4213.221808538874
12.247360467910767 39.21 -4192.157510573542
12.346285343170166 39.15 -4175.538128468844
12.445601224899292 39.1 -4165.932510679022
12.543636560440063 39.04 -4133.270212701785
12.642126560211182 38.98 -4125.436128477036
12.740206480026245 38.92 -4093.500212694093
12.836989164352417 38.86 -4069.7842127889503
12.935963869094849 38.79 -4023.5921827831216
13.034479141235352 38.72 -4006.1446363430564
13.132915258407593 38.65 -3958.457182775545
13.232272386550903 38.57 -3902.177617058133
13.330926179885864 38.5 -3892.147636350418
13.4285888671875 38.42 -3821.568494610263
13.528135538101196 38.34 -3773.879617064704
13.626089334487915 38.26 -3741.1255045320427
13.726336479187012 38.18 -3679.305617057693
13.824421882629395 38.1 -3628.4456170703975
13.921115636825562 38.02 -3593.0755045392257
14.019434928894043 37.94 -3528.999617063871
14.11795163154602 37.85 -3455.151319056106
14.216601610183716 37.76 -3391.0953191859808
14.315287828445435 37.68 -3362.657504634194
14.414331436157227 37.59 -3274.6533190626055
14.513339519500732 37.5 -3206.873806433695
14.612234592437744 37.42 -3177.540727248983
14.711929082870483 37.33 -3086.4253191857065
14.810850143432617 37.24 -3016.2278064384113
14.90791368484497 37.15 -2964.8338181619956
15.00722336769104 37.07 -2899.881494606851
15.10568118095398 36.97 -2798.0380213202657
15.205427646636963 36.88 -2753.2828181661034
15.303942680358887 36.79 -2664.9738064383273
15.402767658233643 36.7 -2591.9833191911507
15.50062870979309 36.61 -2517.117319060418
15.599351644515991 36.52 -2456.8611926988565
15.698647022247314 36.43 -2367.127319193207
15.797364473342896 36.33 -2285.625880676567
15.896004676818848 36.24 -2203.2803191901226
15.99554443359375 36.15 -2124.090319062861
16.09294080734253 36.06 -2044.0543191857912
16.192471981048584 35.97 -1977.80319270261
16.291963815689087 35.87 -1862.1670211850942
16.39098596572876 35.78 -1789.0298064382032
16.489689826965332 35.69 -1721.575818163827
16.586495876312256 35.6 -1623.289319185544
16.68623399734497 35.52 -1557.8484946121555
16.785709381103516 35.43 -1476.781818165348
16.884381771087646 35.34 -1374.9878064385389
16.983022928237915 35.26 -1309.0996170531378
17.081960678100586 35.17 -1224.2578181659626
17.18060326576233 35.09 -1140.8914946121026
17.27805757522583 35.01 -1061.9006170528824
17.377420902252197 34.92 -973.5661926089977
17.47571325302124 34.84 -889.5246170527316
17.57332944869995 34.76 -807.2686170517353
17.67140555381775 34.68 -724.2606169487575
17.770084381103516 34.6 -651.6125046177391
17.869704484939575 34.52 -555.3886169501841
17.968740701675415 34.44 -470.1246170532772
18.06662631034851 34.36 -394.8605046155468
18.165778636932373 34.29 -317.1129148306005
18.263126373291016 34.21 -218.21249461489043
18.36088991165161 34.14 -161.1376363540183
18.45940899848938 34.07 -71.56391492073286
18.558013677597046 33.99 29.38250538705958
18.656417846679688 33.92 88.87736364762448
18.754398822784424 33.85 181.2048172120071
18.853312492370605 33.78 261.87208508134887
18.952746629714966 33.71 343.99808508663523
19.05039381980896 33.64 418.57418352681
19.148244619369507 33.58 491.5317872163965
19.249150037765503 33.51 586.176085165083
19.347265243530273 33.45 643.648871539329
19.446131944656372 33.38 748.2990850880082
19.54517650604248 33.31 834.1850851674855
19.644326210021973 33.25 893.8378715428439
19.743200302124023 33.18 1000.3680851633743
19.842373371124268 33.12 1067.4017872111538
19.940962553024292 33.05 1159.047183469515
20.04001784324646 32.99 1237.5507872857445
20.139108180999756 32.92 1338.3338172087042
20.235647439956665 32.86 1401.1504545485232
20.33462643623352 32.8 1491.114787211376
20.434018850326538 32.74 1572.8191290404543
20.532392024993896 32.68 1648.3684545528238
20.630499362945557 32.63 1719.6274408628728
20.730130672454834 32.57 1812.5357872150714
20.828725576400757 32.51 1890.64145455776
20.927408695220947 32.46 1963.4814408676982
21.02500319480896 32.41 2037.2554893528534
21.122236490249634 32.36 2112.071489398803
21.222127676010132 32.31 2184.0725596190955
21.32022190093994 32.27 2246.4161914911915
21.418211936950684 32.23 2312.4541915230093
21.516239166259766 32.2 2357.9439357808074
21.615349531173706 32.16 2439.670191516971
21.714393854141235 32.14 2465.2775957405697
21.813441514968872 32.11 2533.0249357869925
21.911370515823364 32.09 2574.132595760845
22.011332988739014 32.08 2600.7646881699975
22.11134672164917 32.06 2660.5338181772076
22.210182428359985 32.05 2690.720297872886
22.308014154434204 32.04 2728.3626881760406
22.407416582107544 32.04 2750.1699999991106
22.504981517791748 32.04 2777.697999997181
22.603027820587158 32.04 2805.5220000093104
22.703118801116943 32.04 2838.082000005176
22.80256700515747 32.04 2865.610000003246
22.901912927627563 32.05 2872.701702147636
22.998812913894653 32.06 2890.3377021122697
23.097965240478516 32.07 2913.738688087276
23.19732356071472 32.08 2929.7227021535214
23.29675555229187 32.09 2947.0767021183815
23.393522024154663 32.11 2950.8673761711916
23.49236559867859 32.12 2975.649702112549
23.59154748916626 32.14 2971.895404269733
23.69023060798645 32.16 2985.7793761767934
23.78898048400879 32.18 2989.3594042377154
23.88515615463257 32.19 3016.01631182485
23.98238205909729 32.21 3011.718404273666
24.082273960113525 32.24 3006.082272729025
24.17980408668518 32.26 3017.331623657846
24.280284643173218 32.28 3023.1284042791694
24.37613797187805 32.3 3035.4863761344313
24.474419593811035 32.33 3017.0181064058165
24.572653770446777 32.36 3011.8341064166334
24.67186689376831 32.39 3006.368106357418
24.770852088928223 32.41 3028.165376170331
24.86772084236145 32.44 3008.6631063523405
24.966603994369507 32.47 3002.4451064022323
25.065311431884766 32.5 3004.087064253135
25.16356062889099 32.53 2992.9131063578084
25.261228799819946 32.56 2985.26193548046
25.35941243171692 32.59 2986.7572727192914
25.458835124969482 32.62 2974.4871064021404
25.55808925628662 32.65 2965.998935485318
25.655917406082153 32.68 2958.1501064101053
25.75503444671631 32.71 2957.5030642037996
25.85351252555847 32.74 2944.3551064052886
25.953042030334473 32.77 2935.3171064144253
26.051416873931885 32.8 2933.689064208686
26.14891815185547 32.83 2919.6951064098
26.247394800186157 32.86 2909.8111063541296
26.346659660339355 32.9 2887.9187523203823
26.44523286819458 32.93 2882.1591064136765
26.543461561203003 32.96 2871.3351063587606
26.64265275001526 32.99 2867.636064246496
26.740981578826904 33.02 2851.8561063548664
26.83776617050171 33.05 2840.186106402396
26.936145544052124 33.08 2827.6989354858533
27.034185647964478 33.11 2823.4742727254115
27.133421659469604 33.15 2784.9412473092125
27.230127096176147 33.18 2783.145106404746
27.328633785247803 33.21 2777.4772727291615
27.426855087280273 33.25 2738.014247313028
27.523492574691772 33.28 2735.2781064081514
27.62343692779541 33.31 2721.164106355876
27.721288919448853 33.34 2713.650064241688
27.820983409881592 33.38 2673.8478085434604
27.91868233680725 33.41 2669.4321063596544
28.01746153831482 33.44 2660.82806424491
28.116902828216553 33.47 2640.818106356675
28.213473320007324 33.5 2624.9181064023455
28.31206703186035 33.53 2608.2459354861044
28.41088032722473 33.56 2599.0712727262908
28.5097074508667 33.59 2577.198935483171
28.60764503479004 33.62 2560.5141064041213
28.70750141143799 33.65 2550.0062727291443
28.80616521835327 33.68 2527.2969354860834
28.90492868423462 33.72 2489.0338085389108
29.00243616104126 33.75 2487.6890642066983
29.101545572280884 33.78 2464.765106403925
29.200390577316284 33.81 2445.9511064088006